  Time[sec]     Z-comp     N-comp    E-comp  [mm]
  0.000   -0.293856E-04    0.227662E-04   -0.167063E-03
  0.010    0.732668E-03   -0.906130E-04    0.680241E-04
  0.020    0.164801E-02   -0.272244E-03    0.688175E-03
  0.030    0.215892E-02   -0.375663E-03    0.185481E-02
  0.040    0.263848E-02   -0.221473E-03    0.336390E-02
  0.050    0.321407E-02    0.356832E-03    0.480031E-02
  0.060    0.389465E-02    0.121577E-02    0.620467E-02
  0.070    0.483359E-02    0.207582E-02    0.790651E-02
  0.080    0.589811E-02    0.282014E-02    0.983788E-02
  0.090    0.714630E-02    0.348974E-02    0.117643E-01
  0.100    0.861504E-02    0.423854E-02    0.136625E-01
  0.110    0.101736E-01    0.499826E-02    0.156570E-01
  0.120    0.117062E-01    0.554934E-02    0.177859E-01
  0.130    0.131243E-01    0.585235E-02    0.199451E-01
  0.140    0.145669E-01    0.585361E-02    0.219974E-01
  0.150    0.159365E-01    0.567063E-02    0.241101E-01
  0.160    0.171810E-01    0.538986E-02    0.264496E-01
  0.170    0.185215E-01    0.488699E-02    0.287589E-01
  0.180    0.200295E-01    0.451723E-02    0.308630E-01
  0.190    0.216396E-01    0.445146E-02    0.327668E-01
  0.200    0.234595E-01    0.437677E-02    0.345173E-01
  0.210    0.253369E-01    0.416582E-02    0.363274E-01
  0.220    0.268359E-01    0.378134E-02    0.383820E-01
  0.230    0.281459E-01    0.331561E-02    0.405230E-01
  0.240    0.294571E-01    0.296124E-02    0.423977E-01
  0.250    0.305382E-01    0.287043E-02    0.438503E-01
  0.260    0.316037E-01    0.301470E-02    0.449573E-01
  0.270    0.326373E-01    0.314364E-02    0.457490E-01
  0.280    0.335145E-01    0.298914E-02    0.463734E-01
  0.290    0.343245E-01    0.265748E-02    0.470241E-01
  0.300    0.350078E-01    0.249359E-02    0.476848E-01
  0.310    0.357319E-01    0.260557E-02    0.483751E-01
  0.320    0.363453E-01    0.287656E-02    0.490462E-01
  0.330    0.367569E-01    0.303924E-02    0.497324E-01
  0.340    0.369917E-01    0.299712E-02    0.504968E-01
  0.350    0.371902E-01    0.287486E-02    0.512327E-01
  0.360    0.376223E-01    0.287061E-02    0.520778E-01
  0.370    0.381077E-01    0.307471E-02    0.529889E-01
  0.380    0.383749E-01    0.320497E-02    0.536831E-01
  0.390    0.382389E-01    0.305286E-02    0.541292E-01
  0.400    0.380868E-01    0.265876E-02    0.543489E-01
  0.410    0.379726E-01    0.230347E-02    0.543540E-01
  0.420    0.377555E-01    0.204172E-02    0.543629E-01
  0.430    0.375773E-01    0.160392E-02    0.546471E-01
  0.440    0.371814E-01    0.116772E-02    0.551035E-01
  0.450    0.367491E-01    0.969516E-03    0.555049E-01
  0.460    0.363201E-01    0.845001E-03    0.560255E-01
  0.470    0.358159E-01    0.732217E-03    0.568451E-01
  0.480    0.354125E-01    0.763005E-03    0.577380E-01
  0.490    0.349373E-01    0.978804E-03    0.585764E-01
  0.500    0.344095E-01    0.141682E-02    0.594268E-01
  0.510    0.337166E-01    0.209042E-02    0.601146E-01
  0.520    0.329204E-01    0.297175E-02    0.606303E-01
  0.530    0.323311E-01    0.404219E-02    0.611297E-01
  0.540    0.318158E-01    0.494896E-02    0.616627E-01
  0.550    0.310850E-01    0.549800E-02    0.622278E-01
  0.560    0.302804E-01    0.588357E-02    0.628453E-01
  0.570    0.297038E-01    0.612402E-02    0.634753E-01
  0.580    0.290841E-01    0.645349E-02    0.639913E-01
  0.590    0.285146E-01    0.718998E-02    0.645429E-01
  0.600    0.280111E-01    0.811059E-02    0.652090E-01
  0.610    0.274552E-01    0.897365E-02    0.658985E-01
  0.620    0.270671E-01    0.983698E-02    0.668044E-01
  0.630    0.266289E-01    0.107064E-01    0.677530E-01
  0.640    0.262243E-01    0.116232E-01    0.683365E-01
  0.650    0.257886E-01    0.125712E-01    0.686531E-01
  0.660    0.253414E-01    0.133232E-01    0.689377E-01
  0.670    0.251610E-01    0.139338E-01    0.693066E-01
  0.680    0.250564E-01    0.146329E-01    0.698767E-01
  0.690    0.251052E-01    0.153882E-01    0.704998E-01
  0.700    0.252876E-01    0.161727E-01    0.710679E-01
  0.710    0.252861E-01    0.170988E-01    0.715659E-01
  0.720    0.249305E-01    0.181899E-01    0.718098E-01
  0.730    0.246718E-01    0.192828E-01    0.720073E-01
  0.740    0.246542E-01    0.201740E-01    0.723776E-01
  0.750    0.245561E-01    0.209890E-01    0.729437E-01
  0.760    0.245388E-01    0.218185E-01    0.737359E-01
  0.770    0.243553E-01    0.225668E-01    0.744730E-01
  0.780    0.241313E-01    0.233719E-01    0.749933E-01
  0.790    0.241256E-01    0.241941E-01    0.752964E-01
  0.800    0.238893E-01    0.247379E-01    0.755364E-01
  0.810    0.234169E-01    0.250698E-01    0.759998E-01
  0.820    0.229610E-01    0.256308E-01    0.765243E-01
  0.830    0.226591E-01    0.265500E-01    0.769121E-01
  0.840    0.223695E-01    0.275857E-01    0.773269E-01
  0.850    0.221044E-01    0.284842E-01    0.778597E-01
  0.860    0.218112E-01    0.290799E-01    0.785199E-01
  0.870    0.213955E-01    0.294477E-01    0.792293E-01
  0.880    0.211058E-01    0.298384E-01    0.798436E-01
  0.890    0.208690E-01    0.302512E-01    0.804026E-01
  0.900    0.207309E-01    0.303247E-01    0.810163E-01
  0.910    0.205809E-01    0.301015E-01    0.815969E-01
  0.920    0.203056E-01    0.298874E-01    0.820055E-01
  0.930    0.199222E-01    0.296508E-01    0.824065E-01
  0.940    0.193645E-01    0.292835E-01    0.829647E-01
  0.950    0.187006E-01    0.288008E-01    0.835816E-01
  0.960    0.180378E-01    0.284454E-01    0.841263E-01
  0.970    0.175540E-01    0.282588E-01    0.845737E-01
  0.980    0.172519E-01    0.279063E-01    0.850067E-01
  0.990    0.171077E-01    0.271890E-01    0.854064E-01
  1.000    0.171026E-01    0.263168E-01    0.857099E-01
  1.010    0.172981E-01    0.255469E-01    0.858807E-01
  1.020    0.173124E-01    0.248220E-01    0.859642E-01
  1.030    0.167828E-01    0.241331E-01    0.858520E-01
  1.040    0.162936E-01    0.236399E-01    0.854436E-01
  1.050    0.158270E-01    0.234149E-01    0.849424E-01
  1.060    0.151379E-01    0.233960E-01    0.844440E-01
  1.070    0.145088E-01    0.234072E-01    0.840213E-01
  1.080    0.137998E-01    0.231791E-01    0.835406E-01
  1.090    0.130944E-01    0.225740E-01    0.826824E-01
  1.100    0.124435E-01    0.218094E-01    0.815516E-01
  1.110    0.118084E-01    0.211854E-01    0.803451E-01
  1.120    0.111738E-01    0.206244E-01    0.791506E-01
  1.130    0.103064E-01    0.198277E-01    0.779232E-01
  1.140    0.951166E-02    0.189708E-01    0.765358E-01
  1.150    0.886531E-02    0.184336E-01    0.750212E-01
  1.160    0.812597E-02    0.180561E-01    0.733534E-01
  1.170    0.730972E-02    0.175394E-01    0.715139E-01
  1.180    0.656753E-02    0.169373E-01    0.695141E-01
  1.190    0.603386E-02    0.164010E-01    0.673635E-01
  1.200    0.577751E-02    0.159509E-01    0.653080E-01
  1.210    0.546802E-02    0.155034E-01    0.633210E-01
  1.220    0.464783E-02    0.148877E-01    0.611241E-01
  1.230    0.376991E-02    0.139838E-01    0.586853E-01
  1.240    0.304562E-02    0.129359E-01    0.560841E-01
  1.250    0.212837E-02    0.118843E-01    0.534167E-01
  1.260    0.130437E-02    0.108709E-01    0.506653E-01
  1.270    0.676219E-03    0.990857E-02    0.477840E-01
  1.280    0.166611E-03    0.895693E-02    0.448545E-01
  1.290   -0.189711E-03    0.813539E-02    0.420259E-01
  1.300   -0.550875E-03    0.733258E-02    0.391514E-01
  1.310   -0.915088E-03    0.624687E-02    0.360780E-01
  1.320   -0.143107E-02    0.485130E-02    0.329222E-01
  1.330   -0.200489E-02    0.320619E-02    0.297036E-01
  1.340   -0.249435E-02    0.148111E-02    0.265503E-01
  1.350   -0.298737E-02   -0.146474E-03    0.235089E-01
  1.360   -0.342584E-02   -0.174918E-02    0.204368E-01
  1.370   -0.386401E-02   -0.355356E-02    0.174064E-01
  1.380   -0.445982E-02   -0.551223E-02    0.143947E-01
  1.390   -0.519192E-02   -0.729466E-02    0.112225E-01
  1.400   -0.568828E-02   -0.896370E-02    0.797931E-02
  1.410   -0.610679E-02   -0.107768E-01    0.484382E-02
  1.420   -0.658601E-02   -0.127444E-01    0.183671E-02
  1.430   -0.697773E-02   -0.148171E-01   -0.105178E-02
  1.440   -0.751867E-02   -0.169814E-01   -0.378184E-02
  1.450   -0.797569E-02   -0.193114E-01   -0.640589E-02
  1.460   -0.834377E-02   -0.217668E-01   -0.907389E-02
  1.470   -0.880351E-02   -0.242292E-01   -0.118680E-01
  1.480   -0.918054E-02   -0.269229E-01   -0.148506E-01
  1.490   -0.947859E-02   -0.298289E-01   -0.178694E-01
  1.500   -0.959638E-02   -0.327668E-01   -0.207447E-01
  1.510   -0.963255E-02   -0.356987E-01   -0.235233E-01
  1.520   -0.960911E-02   -0.385488E-01   -0.261845E-01
  1.530   -0.949111E-02   -0.413407E-01   -0.287284E-01
  1.540   -0.948478E-02   -0.440324E-01   -0.310729E-01
  1.550   -0.978827E-02   -0.466383E-01   -0.331433E-01
  1.560   -0.101198E-01   -0.492847E-01   -0.351370E-01
  1.570   -0.999054E-02   -0.520807E-01   -0.372428E-01
  1.580   -0.977988E-02   -0.550640E-01   -0.394203E-01
  1.590   -0.964262E-02   -0.580878E-01   -0.414293E-01
  1.600   -0.953842E-02   -0.609623E-01   -0.431140E-01
  1.610   -0.957428E-02   -0.635474E-01   -0.446704E-01
  1.620   -0.960005E-02   -0.658781E-01   -0.463488E-01
  1.630   -0.978767E-02   -0.681546E-01   -0.480863E-01
  1.640   -0.993707E-02   -0.704617E-01   -0.497447E-01
  1.650   -0.997641E-02   -0.727425E-01   -0.512019E-01
  1.660   -0.100053E-01   -0.750545E-01   -0.525318E-01
  1.670   -0.993293E-02   -0.772695E-01   -0.538608E-01
  1.680   -0.990335E-02   -0.792581E-01   -0.550763E-01
  1.690   -0.973214E-02   -0.811820E-01   -0.561701E-01
  1.700   -0.934752E-02   -0.830908E-01   -0.572011E-01
  1.710   -0.905391E-02   -0.850424E-01   -0.582363E-01
  1.720   -0.917800E-02   -0.870116E-01   -0.593568E-01
  1.730   -0.934854E-02   -0.888573E-01   -0.606148E-01
  1.740   -0.932746E-02   -0.904276E-01   -0.620704E-01
  1.750   -0.940601E-02   -0.916183E-01   -0.637866E-01
  1.760   -0.925922E-02   -0.927283E-01   -0.656900E-01
  1.770   -0.905736E-02   -0.939271E-01   -0.675362E-01
  1.780   -0.894926E-02   -0.952622E-01   -0.693877E-01
  1.790   -0.870475E-02   -0.967500E-01   -0.714827E-01
  1.800   -0.862969E-02   -0.980549E-01   -0.738269E-01
  1.810   -0.870036E-02   -0.990048E-01   -0.763887E-01
  1.820   -0.873395E-02   -0.996648E-01   -0.790234E-01
  1.830   -0.885573E-02   -0.100119E+00   -0.815120E-01
  1.840   -0.926312E-02   -0.100477E+00   -0.838050E-01
  1.850   -0.979011E-02   -0.100770E+00   -0.860802E-01
  1.860   -0.102570E-01   -0.100915E+00   -0.884605E-01
  1.870   -0.107951E-01   -0.100806E+00   -0.908484E-01
  1.880   -0.113515E-01   -0.100592E+00   -0.932535E-01
  1.890   -0.119319E-01   -0.100386E+00   -0.956466E-01
  1.900   -0.125669E-01   -0.100160E+00   -0.982127E-01
  1.910   -0.132361E-01   -0.998788E-01   -0.101182E+00
  1.920   -0.138433E-01   -0.995408E-01   -0.104340E+00
  1.930   -0.145003E-01   -0.993110E-01   -0.107445E+00
  1.940   -0.151953E-01   -0.991753E-01   -0.110237E+00
  1.950   -0.157477E-01   -0.989028E-01   -0.112828E+00
  1.960   -0.162785E-01   -0.984619E-01   -0.115482E+00
  1.970   -0.168077E-01   -0.978709E-01   -0.118070E+00
  1.980   -0.173379E-01   -0.970699E-01   -0.120605E+00
  1.990   -0.177892E-01   -0.962617E-01   -0.122965E+00
  2.000   -0.178918E-01   -0.956042E-01   -0.124859E+00
  2.010   -0.175444E-01   -0.950074E-01   -0.126270E+00
  2.020   -0.173283E-01   -0.943453E-01   -0.127428E+00
  2.030   -0.174374E-01   -0.935834E-01   -0.128781E+00
  2.040   -0.173094E-01   -0.929718E-01   -0.130560E+00
  2.050   -0.172282E-01   -0.925257E-01   -0.132554E+00
  2.060   -0.174189E-01   -0.921226E-01   -0.134409E+00
  2.070   -0.175478E-01   -0.918522E-01   -0.135992E+00
  2.080   -0.177070E-01   -0.916630E-01   -0.137376E+00
  2.090   -0.178529E-01   -0.914360E-01   -0.138593E+00
  2.100   -0.179367E-01   -0.911703E-01   -0.139728E+00
  2.110   -0.180041E-01   -0.909826E-01   -0.140747E+00
  2.120   -0.180621E-01   -0.909427E-01   -0.141598E+00
  2.130   -0.182778E-01   -0.910680E-01   -0.142319E+00
  2.140   -0.185294E-01   -0.913991E-01   -0.142877E+00
  2.150   -0.187838E-01   -0.916731E-01   -0.143089E+00
  2.160   -0.190354E-01   -0.917155E-01   -0.143007E+00
  2.170   -0.191131E-01   -0.918174E-01   -0.143072E+00
  2.180   -0.189616E-01   -0.920548E-01   -0.143386E+00
  2.190   -0.187491E-01   -0.922408E-01   -0.143597E+00
  2.200   -0.185293E-01   -0.925019E-01   -0.143496E+00
  2.210   -0.183734E-01   -0.930112E-01   -0.143168E+00
  2.220   -0.185167E-01   -0.935491E-01   -0.142662E+00
  2.230   -0.184775E-01   -0.939107E-01   -0.141900E+00
  2.240   -0.180541E-01   -0.941722E-01   -0.140965E+00
  2.250   -0.177618E-01   -0.943628E-01   -0.140064E+00
  2.260   -0.174535E-01   -0.943601E-01   -0.139281E+00
  2.270   -0.170399E-01   -0.941542E-01   -0.138442E+00
  2.280   -0.165546E-01   -0.938767E-01   -0.137315E+00
  2.290   -0.157630E-01   -0.935842E-01   -0.135930E+00
  2.300   -0.148240E-01   -0.932942E-01   -0.134346E+00
  2.310   -0.139771E-01   -0.929367E-01   -0.132486E+00
  2.320   -0.133130E-01   -0.925162E-01   -0.130508E+00
  2.330   -0.126155E-01   -0.920421E-01   -0.128557E+00
  2.340   -0.119697E-01   -0.914340E-01   -0.126622E+00
  2.350   -0.114225E-01   -0.907049E-01   -0.124699E+00
  2.360   -0.105606E-01   -0.897779E-01   -0.122743E+00
  2.370   -0.944953E-02   -0.886846E-01   -0.120734E+00
  2.380   -0.844540E-02   -0.875395E-01   -0.118688E+00
  2.390   -0.784115E-02   -0.863325E-01   -0.116490E+00
  2.400   -0.737329E-02   -0.852424E-01   -0.114027E+00
  2.410   -0.689234E-02   -0.844125E-01   -0.111397E+00
  2.420   -0.642057E-02   -0.836685E-01   -0.108444E+00
  2.430   -0.586201E-02   -0.827681E-01   -0.105128E+00
  2.440   -0.537037E-02   -0.815659E-01   -0.101871E+00
  2.450   -0.466416E-02   -0.801206E-01   -0.988200E-01
  2.460   -0.378752E-02   -0.785806E-01   -0.957205E-01
  2.470   -0.288713E-02   -0.771465E-01   -0.923522E-01
  2.480   -0.203939E-02   -0.758679E-01   -0.888301E-01
  2.490   -0.125100E-02   -0.746096E-01   -0.853198E-01
  2.500   -0.276269E-03   -0.733784E-01   -0.818080E-01
  2.510    0.670600E-03   -0.720326E-01   -0.781349E-01
  2.520    0.172370E-02   -0.705042E-01   -0.742391E-01
  2.530    0.292424E-02   -0.690430E-01   -0.702441E-01
  2.540    0.405874E-02   -0.676812E-01   -0.661402E-01
  2.550    0.484358E-02   -0.663524E-01   -0.620262E-01
  2.560    0.540413E-02   -0.651004E-01   -0.580774E-01
  2.570    0.624386E-02   -0.640141E-01   -0.542497E-01
  2.580    0.699565E-02   -0.631340E-01   -0.503695E-01
  2.590    0.774164E-02   -0.621609E-01   -0.462593E-01
  2.600    0.856161E-02   -0.609078E-01   -0.421094E-01
  2.610    0.924983E-02   -0.596100E-01   -0.383089E-01
  2.620    0.997176E-02   -0.583771E-01   -0.347639E-01
  2.630    0.105198E-01   -0.571725E-01   -0.312558E-01
  2.640    0.111014E-01   -0.560233E-01   -0.278019E-01
  2.650    0.117131E-01   -0.549614E-01   -0.243895E-01
  2.660    0.121379E-01   -0.540712E-01   -0.210250E-01
  2.670    0.125212E-01   -0.532436E-01   -0.178009E-01
  2.680    0.129149E-01   -0.523128E-01   -0.148203E-01
  2.690    0.135305E-01   -0.513401E-01   -0.119177E-01
  2.700    0.142773E-01   -0.504858E-01   -0.911496E-02
  2.710    0.149242E-01   -0.498936E-01   -0.673671E-02
  2.720    0.152567E-01   -0.494339E-01   -0.454909E-02
  2.730    0.156591E-01   -0.488870E-01   -0.230619E-02
  2.740    0.164071E-01   -0.482146E-01   -0.106856E-03
  2.750    0.171981E-01   -0.474937E-01    0.199837E-02
  2.760    0.181210E-01   -0.469234E-01    0.404532E-02
  2.770    0.187949E-01   -0.463933E-01    0.597146E-02
  2.780    0.193280E-01   -0.456598E-01    0.756751E-02
  2.790    0.200883E-01   -0.446134E-01    0.881856E-02
  2.800    0.207551E-01   -0.432216E-01    0.990619E-02
  2.810    0.212375E-01   -0.416883E-01    0.108951E-01
  2.820    0.215283E-01   -0.401162E-01    0.118608E-01
  2.830    0.217534E-01   -0.384027E-01    0.128925E-01
  2.840    0.218855E-01   -0.364167E-01    0.137986E-01
  2.850    0.220671E-01   -0.342826E-01    0.144518E-01
  2.860    0.222921E-01   -0.321717E-01    0.149746E-01
  2.870    0.223278E-01   -0.298188E-01    0.152543E-01
  2.880    0.223770E-01   -0.270335E-01    0.153196E-01
  2.890    0.224646E-01   -0.238217E-01    0.153154E-01
  2.900    0.225793E-01   -0.203433E-01    0.152651E-01
  2.910    0.225613E-01   -0.167530E-01    0.151770E-01
  2.920    0.224202E-01   -0.129584E-01    0.150927E-01
  2.930    0.222373E-01   -0.898358E-02    0.149981E-01
  2.940    0.220174E-01   -0.490123E-02    0.148062E-01
  2.950    0.217635E-01   -0.663931E-03    0.145364E-01
  2.960    0.214570E-01    0.365554E-02    0.140836E-01
  2.970    0.212349E-01    0.792281E-02    0.135304E-01
  2.980    0.210356E-01    0.122114E-01    0.131514E-01
  2.990    0.209564E-01    0.165905E-01    0.128707E-01
  3.000    0.211667E-01    0.210090E-01    0.125313E-01
  3.010    0.215651E-01    0.255849E-01    0.121249E-01
  3.020    0.216042E-01    0.305852E-01    0.116346E-01
  3.030    0.210875E-01    0.360324E-01    0.110177E-01
  3.040    0.206886E-01    0.415411E-01    0.103863E-01
  3.050    0.202450E-01    0.468296E-01    0.982190E-02
  3.060    0.196234E-01    0.519597E-01    0.938599E-02
  3.070    0.192238E-01    0.571385E-01    0.930406E-02
  3.080    0.187418E-01    0.623651E-01    0.945602E-02
  3.090    0.182968E-01    0.676424E-01    0.961800E-02
  3.100    0.177327E-01    0.730221E-01    0.978594E-02
  3.110    0.168459E-01    0.783418E-01    0.986184E-02
  3.120    0.159221E-01    0.836795E-01    0.988637E-02
  3.130    0.149136E-01    0.890149E-01    0.100103E-01
  3.140    0.140520E-01    0.942333E-01    0.102271E-01
  3.150    0.132399E-01    0.993116E-01    0.105079E-01
  3.160    0.123324E-01    0.104203E+00    0.109372E-01
  3.170    0.113692E-01    0.109060E+00    0.115802E-01
  3.180    0.103537E-01    0.113740E+00    0.123407E-01
  3.190    0.943695E-02    0.118093E+00    0.131587E-01
  3.200    0.869344E-02    0.122271E+00    0.142329E-01
  3.210    0.800487E-02    0.126570E+00    0.156529E-01
  3.220    0.705836E-02    0.131219E+00    0.171108E-01
  3.230    0.606637E-02    0.136079E+00    0.185267E-01
  3.240    0.515359E-02    0.140937E+00    0.200754E-01
  3.250    0.400493E-02    0.145628E+00    0.218003E-01
  3.260    0.285679E-02    0.150057E+00    0.237567E-01
  3.270    0.171059E-02    0.154477E+00    0.257414E-01
  3.280    0.465804E-03    0.159088E+00    0.274131E-01
  3.290   -0.660627E-03    0.163661E+00    0.289595E-01
  3.300   -0.180605E-02    0.168064E+00    0.306394E-01
  3.310   -0.292139E-02    0.172168E+00    0.324101E-01
  3.320   -0.410374E-02    0.175908E+00    0.343459E-01
  3.330   -0.536150E-02    0.179438E+00    0.364183E-01
  3.340   -0.648977E-02    0.182707E+00    0.384923E-01
  3.350   -0.750138E-02    0.185715E+00    0.404987E-01
  3.360   -0.827239E-02    0.188560E+00    0.424644E-01
  3.370   -0.883055E-02    0.191161E+00    0.445478E-01
  3.380   -0.943743E-02    0.193507E+00    0.466967E-01
  3.390   -0.100602E-01    0.195673E+00    0.487646E-01
  3.400   -0.105098E-01    0.197576E+00    0.508754E-01
  3.410   -0.111634E-01    0.199154E+00    0.530929E-01
  3.420   -0.120034E-01    0.200536E+00    0.553359E-01
  3.430   -0.126341E-01    0.202072E+00    0.576317E-01
  3.440   -0.131891E-01    0.203890E+00    0.599302E-01
  3.450   -0.135406E-01    0.205666E+00    0.620957E-01
  3.460   -0.137362E-01    0.207009E+00    0.640667E-01
  3.470   -0.140221E-01    0.207851E+00    0.658989E-01
  3.480   -0.142459E-01    0.208320E+00    0.676014E-01
