  Time(sec)     RMS      ENVELOPE
    0.0000  0.53141E-08  0.00000E+00
    0.0100  0.44964E-07  0.00000E+00
    0.0200  0.18997E-06  0.00000E+00
    0.0300  0.54634E-06  0.00000E+00
    0.0400  0.12244E-05  0.00000E+00
    0.0500  0.23041E-05  0.00000E+00
    0.0600  0.38084E-05  0.00000E+00
    0.0700  0.56872E-05  0.00000E+00
    0.0800  0.78173E-05  0.00000E+00
    0.0900  0.10018E-04  0.00000E+00
    0.1000  0.12077E-04  0.00000E+00
    0.1100  0.13787E-04  0.00000E+00
    0.1200  0.14969E-04  0.00000E+00
    0.1300  0.15496E-04  0.15496E-04
    0.1400  0.15298E-04  0.15713E-04
    0.1500  0.14378E-04  0.15931E-04
    0.1600  0.12820E-04  0.16149E-04
    0.1700  0.10811E-04  0.16367E-04
    0.1800  0.86852E-05  0.16584E-04
    0.1900  0.70459E-05  0.16802E-04
    0.2000  0.67388E-05  0.17020E-04
    0.2100  0.80044E-05  0.17237E-04
    0.2200  0.10133E-04  0.17455E-04
    0.2300  0.12450E-04  0.17673E-04
    0.2400  0.14590E-04  0.17890E-04
    0.2500  0.16355E-04  0.18108E-04
    0.2600  0.17645E-04  0.18326E-04
    0.2700  0.18434E-04  0.18544E-04
    0.2800  0.18761E-04  0.18761E-04
    0.2900  0.18724E-04  0.18571E-04
    0.3000  0.18456E-04  0.18381E-04
    0.3100  0.18091E-04  0.18192E-04
    0.3200  0.17729E-04  0.18002E-04
    0.3300  0.17393E-04  0.17812E-04
    0.3400  0.17031E-04  0.17622E-04
    0.3500  0.16535E-04  0.17432E-04
    0.3600  0.15794E-04  0.17242E-04
    0.3700  0.14741E-04  0.17052E-04
    0.3800  0.13374E-04  0.16863E-04
    0.3900  0.11760E-04  0.16673E-04
    0.4000  0.10007E-04  0.16483E-04
    0.4100  0.82405E-05  0.16293E-04
    0.4200  0.65709E-05  0.16103E-04
    0.4300  0.50811E-05  0.15913E-04
    0.4400  0.38445E-05  0.15723E-04
    0.4500  0.29894E-05  0.15533E-04
    0.4600  0.27418E-05  0.15344E-04
    0.4700  0.31529E-05  0.15154E-04
    0.4800  0.39107E-05  0.14964E-04
    0.4900  0.46961E-05  0.14774E-04
    0.5000  0.53250E-05  0.14584E-04
    0.5100  0.57186E-05  0.14394E-04
    0.5200  0.58894E-05  0.14204E-04
    0.5300  0.59460E-05  0.14015E-04
    0.5400  0.60768E-05  0.13825E-04
    0.5500  0.64704E-05  0.13635E-04
    0.5600  0.71979E-05  0.13445E-04
    0.5700  0.81792E-05  0.13255E-04
    0.5800  0.92597E-05  0.13065E-04
    0.5900  0.10289E-04  0.12875E-04
    0.6000  0.11152E-04  0.12685E-04
    0.6100  0.11769E-04  0.12496E-04
    0.6200  0.12094E-04  0.12306E-04
    0.6300  0.12116E-04  0.12116E-04
    0.6400  0.11854E-04  0.12373E-04
    0.6500  0.11357E-04  0.12631E-04
    0.6600  0.10691E-04  0.12889E-04
    0.6700  0.99332E-05  0.13146E-04
    0.6800  0.91547E-05  0.13404E-04
    0.6900  0.84318E-05  0.13661E-04
    0.7000  0.78762E-05  0.13919E-04
    0.7100  0.76639E-05  0.14177E-04
    0.7200  0.79909E-05  0.14434E-04
    0.7300  0.89302E-05  0.14692E-04
    0.7400  0.10349E-04  0.14949E-04
    0.7500  0.11992E-04  0.15207E-04
    0.7600  0.13597E-04  0.15465E-04
    0.7700  0.14949E-04  0.15722E-04
    0.7800  0.15907E-04  0.15980E-04
    0.7900  0.16413E-04  0.16237E-04
    0.8000  0.16495E-04  0.16495E-04
    0.8100  0.16269E-04  0.16375E-04
    0.8200  0.15910E-04  0.16255E-04
    0.8300  0.15597E-04  0.16134E-04
    0.8400  0.15445E-04  0.16014E-04
    0.8500  0.15463E-04  0.15894E-04
    0.8600  0.15569E-04  0.15774E-04
    0.8700  0.15653E-04  0.15653E-04
    0.8800  0.15634E-04  0.15615E-04
    0.8900  0.15476E-04  0.15576E-04
    0.9000  0.15190E-04  0.15537E-04
    0.9100  0.14815E-04  0.15498E-04
    0.9200  0.14406E-04  0.15459E-04
    0.9300  0.14013E-04  0.15421E-04
    0.9400  0.13663E-04  0.15382E-04
    0.9500  0.13357E-04  0.15343E-04
    0.9600  0.13077E-04  0.15304E-04
    0.9700  0.12809E-04  0.15265E-04
    0.9800  0.12553E-04  0.15227E-04
    0.9900  0.12326E-04  0.15188E-04
    1.0000  0.12151E-04  0.15149E-04
    1.0100  0.12037E-04  0.15110E-04
    1.0200  0.11961E-04  0.15071E-04
    1.0300  0.11864E-04  0.15032E-04
    1.0400  0.11673E-04  0.14994E-04
    1.0500  0.11332E-04  0.14955E-04
    1.0600  0.10834E-04  0.14916E-04
    1.0700  0.10224E-04  0.14877E-04
    1.0800  0.96013E-05  0.14838E-04
    1.0900  0.90946E-05  0.14800E-04
    1.1000  0.88390E-05  0.14761E-04
    1.1100  0.89330E-05  0.14722E-04
    1.1200  0.93977E-05  0.14683E-04
    1.1300  0.10170E-04  0.14644E-04
    1.1400  0.11133E-04  0.14606E-04
    1.1500  0.12150E-04  0.14567E-04
    1.1600  0.13084E-04  0.14528E-04
    1.1700  0.13817E-04  0.14489E-04
    1.1800  0.14269E-04  0.14450E-04
    1.1900  0.14412E-04  0.14412E-04
    1.2000  0.14292E-04  0.15160E-04
    1.2100  0.14051E-04  0.15909E-04
    1.2200  0.13910E-04  0.16657E-04
    1.2300  0.14107E-04  0.17406E-04
    1.2400  0.14792E-04  0.18154E-04
    1.2500  0.15952E-04  0.18903E-04
    1.2600  0.17436E-04  0.19651E-04
    1.2700  0.19053E-04  0.20400E-04
    1.2800  0.20636E-04  0.21148E-04
    1.2900  0.22050E-04  0.21897E-04
    1.3000  0.23181E-04  0.22645E-04
    1.3100  0.23916E-04  0.23393E-04
    1.3200  0.24142E-04  0.24142E-04
    1.3300  0.23760E-04  0.23495E-04
    1.3400  0.22701E-04  0.22849E-04
    1.3500  0.20948E-04  0.22202E-04
    1.3600  0.18554E-04  0.21555E-04
    1.3700  0.15640E-04  0.20909E-04
    1.3800  0.12390E-04  0.20262E-04
    1.3900  0.90293E-05  0.19615E-04
    1.4000  0.58200E-05  0.18969E-04
    1.4100  0.32259E-05  0.18322E-04
    1.4200  0.26383E-05  0.17675E-04
    1.4300  0.41211E-05  0.17029E-04
    1.4400  0.57503E-05  0.16382E-04
    1.4500  0.69713E-05  0.15735E-04
    1.4600  0.77052E-05  0.15088E-04
    1.4700  0.80232E-05  0.14442E-04
    1.4800  0.80907E-05  0.13795E-04
    1.4900  0.81250E-05  0.13148E-04
    1.5000  0.83173E-05  0.12502E-04
    1.5100  0.87326E-05  0.11855E-04
    1.5200  0.92692E-05  0.11208E-04
    1.5300  0.97279E-05  0.10562E-04
    1.5400  0.99151E-05  0.99151E-05
    1.5500  0.97094E-05  0.10614E-04
    1.5600  0.90766E-05  0.11314E-04
    1.5700  0.80514E-05  0.12013E-04
    1.5800  0.67153E-05  0.12712E-04
    1.5900  0.52100E-05  0.13412E-04
    1.6000  0.38539E-05  0.14111E-04
    1.6100  0.34100E-05  0.14810E-04
    1.6200  0.44829E-05  0.15510E-04
    1.6300  0.64760E-05  0.16209E-04
    1.6400  0.88182E-05  0.16908E-04
    1.6500  0.11265E-04  0.17608E-04
    1.6600  0.13681E-04  0.18307E-04
    1.6700  0.15961E-04  0.19006E-04
    1.6800  0.18010E-04  0.19706E-04
    1.6900  0.19748E-04  0.20405E-04
    1.7000  0.21109E-04  0.21104E-04
    1.7100  0.22042E-04  0.21804E-04
    1.7200  0.22503E-04  0.22503E-04
    1.7300  0.22447E-04  0.22028E-04
    1.7400  0.21832E-04  0.21552E-04
    1.7500  0.20625E-04  0.21076E-04
    1.7600  0.18832E-04  0.20601E-04
    1.7700  0.16521E-04  0.20125E-04
    1.7800  0.13861E-04  0.19650E-04
    1.7900  0.11176E-04  0.19174E-04
    1.8000  0.90284E-05  0.18699E-04
    1.8100  0.81869E-05  0.18223E-04
    1.8200  0.89419E-05  0.17748E-04
    1.8300  0.10628E-04  0.17272E-04
    1.8400  0.12454E-04  0.16797E-04
    1.8500  0.13965E-04  0.16321E-04
    1.8600  0.14958E-04  0.15846E-04
    1.8700  0.15370E-04  0.15370E-04
    1.8800  0.15227E-04  0.14750E-04
    1.8900  0.14610E-04  0.14130E-04
    1.9000  0.13634E-04  0.13510E-04
    1.9100  0.12429E-04  0.12890E-04
    1.9200  0.11131E-04  0.12270E-04
    1.9300  0.98816E-05  0.11650E-04
    1.9400  0.88284E-05  0.11029E-04
    1.9500  0.81082E-05  0.10409E-04
    1.9600  0.77821E-05  0.97892E-05
    1.9700  0.77745E-05  0.91691E-05
    1.9800  0.78940E-05  0.85490E-05
    1.9900  0.79289E-05  0.79289E-05
    2.0000  0.77273E-05  0.74411E-05
    2.0100  0.72266E-05  0.69533E-05
    2.0200  0.64455E-05  0.64655E-05
    2.0300  0.54574E-05  0.59777E-05
    2.0400  0.43583E-05  0.54899E-05
    2.0500  0.32402E-05  0.50021E-05
    2.0600  0.21753E-05  0.45143E-05
    2.0700  0.12242E-05  0.40265E-05
    2.0800  0.53210E-06  0.35387E-05
    2.0900  0.65403E-06  0.30508E-05
    2.1000  0.11103E-05  0.25630E-05
    2.1100  0.14385E-05  0.20752E-05
    2.1200  0.15874E-05  0.15874E-05
    2.1300  0.15750E-05  0.18578E-05
    2.1400  0.14721E-05  0.21282E-05
    2.1500  0.14211E-05  0.23985E-05
    2.1600  0.15954E-05  0.26689E-05
    2.1700  0.20387E-05  0.29393E-05
    2.1800  0.26449E-05  0.32096E-05
    2.1900  0.32833E-05  0.34800E-05
    2.2000  0.38494E-05  0.37504E-05
    2.2100  0.42724E-05  0.40208E-05
    2.2200  0.45144E-05  0.42911E-05
    2.2300  0.45615E-05  0.45615E-05
    2.2400  0.44095E-05  0.54759E-05
    2.2500  0.40530E-05  0.63904E-05
    2.2600  0.34874E-05  0.73048E-05
    2.2700  0.27386E-05  0.82193E-05
    2.2800  0.20098E-05  0.91337E-05
    2.2900  0.21137E-05  0.10048E-04
    2.3000  0.35487E-05  0.10963E-04
    2.3100  0.57172E-05  0.11877E-04
    2.3200  0.82480E-05  0.12791E-04
    2.3300  0.10910E-04  0.13706E-04
    2.3400  0.13474E-04  0.14620E-04
    2.3500  0.15704E-04  0.15535E-04
    2.3600  0.17369E-04  0.16449E-04
    2.3700  0.18274E-04  0.17364E-04
    2.3800  0.18278E-04  0.18278E-04
    2.3900  0.17313E-04  0.18297E-04
    2.4000  0.15387E-04  0.18317E-04
    2.4100  0.12581E-04  0.18336E-04
    2.4200  0.90408E-05  0.18355E-04
    2.4300  0.49740E-05  0.18375E-04
    2.4400  0.86024E-06  0.18394E-04
    2.4500  0.39708E-05  0.18413E-04
    2.4600  0.81770E-05  0.18433E-04
    2.4700  0.11939E-04  0.18452E-04
    2.4800  0.15011E-04  0.18471E-04
    2.4900  0.17205E-04  0.18491E-04
    2.5000  0.18396E-04  0.18510E-04
    2.5100  0.18530E-04  0.18530E-04
    2.5200  0.17622E-04  0.18380E-04
    2.5300  0.15761E-04  0.18230E-04
    2.5400  0.13102E-04  0.18080E-04
    2.5500  0.98885E-05  0.17930E-04
    2.5600  0.65723E-05  0.17781E-04
    2.5700  0.44196E-05  0.17631E-04
    2.5800  0.55709E-05  0.17481E-04
    2.5900  0.85745E-05  0.17331E-04
    2.6000  0.11637E-04  0.17182E-04
    2.6100  0.14168E-04  0.17032E-04
    2.6200  0.15911E-04  0.16882E-04
    2.6300  0.16732E-04  0.16732E-04
    2.6400  0.16591E-04  0.16812E-04
    2.6500  0.15532E-04  0.16892E-04
    2.6600  0.13689E-04  0.16972E-04
    2.6700  0.11281E-04  0.17051E-04
    2.6800  0.86530E-05  0.17131E-04
    2.6900  0.64352E-05  0.17211E-04
    2.7000  0.57749E-05  0.17291E-04
    2.7100  0.71930E-05  0.17370E-04
    2.7200  0.96244E-05  0.17450E-04
    2.7300  0.12176E-04  0.17530E-04
    2.7400  0.14440E-04  0.17609E-04
    2.7500  0.16210E-04  0.17689E-04
    2.7600  0.17367E-04  0.17769E-04
    2.7700  0.17849E-04  0.17849E-04
    2.7800  0.17631E-04  0.17688E-04
    2.7900  0.16726E-04  0.17527E-04
    2.8000  0.15174E-04  0.17366E-04
    2.8100  0.13048E-04  0.17205E-04
    2.8200  0.10449E-04  0.17044E-04
    2.8300  0.75381E-05  0.16883E-04
    2.8400  0.47047E-05  0.16723E-04
    2.8500  0.34298E-05  0.16562E-04
    2.8600  0.53314E-05  0.16401E-04
    2.8700  0.83182E-05  0.16240E-04
    2.8800  0.11174E-04  0.16079E-04
    2.8900  0.13474E-04  0.15918E-04
    2.9000  0.14986E-04  0.15757E-04
    2.9100  0.15597E-04  0.15597E-04
    2.9200  0.15305E-04  0.15359E-04
    2.9300  0.14219E-04  0.15121E-04
    2.9400  0.12518E-04  0.14883E-04
    2.9500  0.10425E-04  0.14645E-04
    2.9600  0.81688E-05  0.14407E-04
    2.9700  0.59733E-05  0.14169E-04
    2.9800  0.40458E-05  0.13931E-04
    2.9900  0.25527E-05  0.13693E-04
    3.0000  0.15471E-05  0.13455E-04
    3.0100  0.86871E-06  0.13217E-04
    3.0200  0.39388E-06  0.12979E-04
    3.0300  0.10460E-05  0.12742E-04
    3.0400  0.22844E-05  0.12504E-04
    3.0500  0.37741E-05  0.12266E-04
    3.0600  0.53912E-05  0.12028E-04
    3.0700  0.70098E-05  0.11790E-04
    3.0800  0.84923E-05  0.11552E-04
    3.0900  0.96984E-05  0.11314E-04
    3.1000  0.10507E-04  0.11076E-04
    3.1100  0.10838E-04  0.10838E-04
    3.1200  0.10667E-04  0.11179E-04
    3.1300  0.10019E-04  0.11520E-04
    3.1400  0.89548E-05  0.11862E-04
    3.1500  0.75493E-05  0.12203E-04
    3.1600  0.58727E-05  0.12544E-04
    3.1700  0.39832E-05  0.12885E-04
    3.1800  0.19557E-05  0.13226E-04
    3.1900  0.84524E-06  0.13567E-04
    3.2000  0.28935E-05  0.13908E-04
    3.2100  0.52500E-05  0.14249E-04
    3.2200  0.75791E-05  0.14590E-04
    3.2300  0.97719E-05  0.14931E-04
    3.2400  0.11747E-04  0.15272E-04
    3.2500  0.13447E-04  0.15614E-04
    3.2600  0.14841E-04  0.15955E-04
    3.2700  0.15925E-04  0.16296E-04
    3.2800  0.16713E-04  0.16637E-04
    3.2900  0.17238E-04  0.16978E-04
    3.3000  0.17538E-04  0.17319E-04
    3.3100  0.17660E-04  0.17660E-04
    3.3200  0.17646E-04  0.17662E-04
    3.3300  0.17526E-04  0.17665E-04
    3.3400  0.17302E-04  0.17667E-04
    3.3500  0.16954E-04  0.17669E-04
    3.3600  0.16462E-04  0.17671E-04
    3.3700  0.15825E-04  0.17674E-04
    3.3800  0.15072E-04  0.17676E-04
    3.3900  0.14235E-04  0.17678E-04
    3.4000  0.13339E-04  0.17681E-04
    3.4100  0.12388E-04  0.17683E-04
    3.4200  0.11379E-04  0.17685E-04
    3.4300  0.10327E-04  0.17687E-04
    3.4400  0.92760E-05  0.17690E-04
    3.4500  0.83038E-05  0.17692E-04
    3.4600  0.74997E-05  0.17694E-04
    3.4700  0.69385E-05  0.17696E-04
    3.4800  0.66556E-05  0.17699E-04
    3.4900  0.66422E-05  0.17701E-04
    3.5000  0.68574E-05  0.17703E-04
    3.5100  0.72404E-05  0.17706E-04
    3.5200  0.77160E-05  0.17708E-04
    3.5300  0.82012E-05  0.17710E-04
    3.5400  0.86238E-05  0.17712E-04
    3.5500  0.89517E-05  0.17715E-04
    3.5600  0.92206E-05  0.17717E-04
    3.5700  0.95409E-05  0.17719E-04
    3.5800  0.10059E-04  0.17721E-04
    3.5900  0.10881E-04  0.17724E-04
    3.6000  0.12001E-04  0.17726E-04
    3.6100  0.13309E-04  0.17728E-04
    3.6200  0.14646E-04  0.17731E-04
    3.6300  0.15857E-04  0.17733E-04
    3.6400  0.16824E-04  0.17735E-04
    3.6500  0.17465E-04  0.17737E-04
    3.6600  0.17740E-04  0.17740E-04
    3.6700  0.17648E-04  0.17410E-04
    3.6800  0.17226E-04  0.17080E-04
    3.6900  0.16546E-04  0.16751E-04
    3.7000  0.15704E-04  0.16421E-04
    3.7100  0.14810E-04  0.16092E-04
    3.7200  0.13948E-04  0.15762E-04
    3.7300  0.13169E-04  0.15432E-04
    3.7400  0.12481E-04  0.15103E-04
    3.7500  0.11862E-04  0.14773E-04
    3.7600  0.11286E-04  0.14443E-04
    3.7700  0.10732E-04  0.14114E-04
    3.7800  0.10190E-04  0.13784E-04
    3.7900  0.96547E-05  0.13455E-04
    3.8000  0.91098E-05  0.13125E-04
    3.8100  0.85322E-05  0.12795E-04
    3.8200  0.79087E-05  0.12466E-04
    3.8300  0.72579E-05  0.12136E-04
    3.8400  0.66500E-05  0.11807E-04
    3.8500  0.62124E-05  0.11477E-04
    3.8600  0.60962E-05  0.11147E-04
    3.8700  0.63825E-05  0.10818E-04
    3.8800  0.70032E-05  0.10488E-04
    3.8900  0.77774E-05  0.10158E-04
    3.9000  0.85002E-05  0.98289E-05
    3.9100  0.90015E-05  0.94993E-05
    3.9200  0.91696E-05  0.91696E-05
    3.9300  0.89560E-05  0.92606E-05
    3.9400  0.83708E-05  0.93515E-05
    3.9500  0.74817E-05  0.94424E-05
    3.9600  0.64203E-05  0.95334E-05
    3.9700  0.54068E-05  0.96243E-05
    3.9800  0.47751E-05  0.97152E-05
    3.9900  0.48492E-05  0.98062E-05
    4.0000  0.56150E-05  0.98971E-05
    4.0100  0.67519E-05  0.99880E-05
    4.0200  0.79553E-05  0.10079E-04
    4.0300  0.90286E-05  0.10170E-04
    4.0400  0.98482E-05  0.10261E-04
    4.0500  0.10335E-04  0.10352E-04
    4.0600  0.10443E-04  0.10443E-04
    4.0700  0.10160E-04  0.97550E-05
    4.0800  0.95060E-05  0.90674E-05
    4.0900  0.85320E-05  0.83798E-05
    4.1000  0.73194E-05  0.76921E-05
    4.1100  0.59804E-05  0.70045E-05
    4.1200  0.46609E-05  0.63168E-05
    4.1300  0.35492E-05  0.56292E-05
    4.1400  0.28665E-05  0.49415E-05
    4.1500  0.27035E-05  0.42539E-05
    4.1600  0.28214E-05  0.35663E-05
    4.1700  0.28786E-05  0.28786E-05
    4.1800  0.26663E-05  0.36585E-05
    4.1900  0.20999E-05  0.44384E-05
    4.2000  0.11719E-05  0.52182E-05
    4.2100  0.22976E-06  0.59981E-05
    4.2200  0.16854E-05  0.67780E-05
    4.2300  0.34496E-05  0.75579E-05
    4.2400  0.53413E-05  0.83377E-05
    4.2500  0.72495E-05  0.91176E-05
    4.2600  0.90533E-05  0.98975E-05
    4.2700  0.10630E-04  0.10677E-04
    4.2800  0.11867E-04  0.11457E-04
    4.2900  0.12679E-04  0.12237E-04
    4.3000  0.13017E-04  0.13017E-04
    4.3100  0.12871E-04  0.12876E-04
    4.3200  0.12279E-04  0.12736E-04
    4.3300  0.11320E-04  0.12595E-04
    4.3400  0.10130E-04  0.12455E-04
    4.3500  0.89032E-05  0.12314E-04
    4.3600  0.78965E-05  0.12174E-04
    4.3700  0.73725E-05  0.12033E-04
    4.3800  0.74499E-05  0.11892E-04
    4.3900  0.80089E-05  0.11752E-04
    4.4000  0.88049E-05  0.11611E-04
    4.4100  0.96232E-05  0.11471E-04
    4.4200  0.10322E-04  0.11330E-04
    4.4300  0.10815E-04  0.11189E-04
    4.4400  0.11049E-04  0.11049E-04
    4.4500  0.10999E-04  0.11263E-04
    4.4600  0.10674E-04  0.11477E-04
    4.4700  0.10116E-04  0.11690E-04
    4.4800  0.93950E-05  0.11904E-04
    4.4900  0.85975E-05  0.12118E-04
    4.5000  0.78176E-05  0.12332E-04
    4.5100  0.71558E-05  0.12546E-04
    4.5200  0.67107E-05  0.12760E-04
    4.5300  0.65542E-05  0.12974E-04
    4.5400  0.67026E-05  0.13187E-04
    4.5500  0.71200E-05  0.13401E-04
    4.5600  0.77549E-05  0.13615E-04
    4.5700  0.85665E-05  0.13829E-04
    4.5800  0.95229E-05  0.14043E-04
    4.5900  0.10587E-04  0.14257E-04
    4.6000  0.11706E-04  0.14470E-04
    4.6100  0.12812E-04  0.14684E-04
    4.6200  0.13823E-04  0.14898E-04
    4.6300  0.14662E-04  0.15112E-04
    4.6400  0.15254E-04  0.15326E-04
    4.6500  0.15540E-04  0.15540E-04
    4.6600  0.15487E-04  0.15147E-04
    4.6700  0.15095E-04  0.14753E-04
    4.6800  0.14391E-04  0.14360E-04
    4.6900  0.13419E-04  0.13967E-04
    4.7000  0.12230E-04  0.13574E-04
    4.7100  0.10887E-04  0.13181E-04
    4.7200  0.94847E-05  0.12788E-04
    4.7300  0.81871E-05  0.12395E-04
    4.7400  0.72335E-05  0.12002E-04
    4.7500  0.68655E-05  0.11609E-04
    4.7600  0.71360E-05  0.11215E-04
    4.7700  0.78292E-05  0.10822E-04
    4.7800  0.86308E-05  0.10429E-04
    4.7900  0.92878E-05  0.10036E-04
    4.8000  0.96429E-05  0.96429E-05
    4.8100  0.96194E-05  0.98237E-05
    4.8200  0.91993E-05  0.10005E-04
    4.8300  0.84047E-05  0.10185E-04
    4.8400  0.72879E-05  0.10366E-04
    4.8500  0.59338E-05  0.10547E-04
    4.8600  0.44972E-05  0.10728E-04
    4.8700  0.33496E-05  0.10909E-04
    4.8800  0.32471E-05  0.11090E-04
    4.8900  0.43860E-05  0.11270E-04
    4.9000  0.60550E-05  0.11451E-04
    4.9100  0.77855E-05  0.11632E-04
    4.9200  0.93685E-05  0.11813E-04
    4.9300  0.10692E-04  0.11994E-04
    4.9400  0.11687E-04  0.12175E-04
    4.9500  0.12309E-04  0.12355E-04
    4.9600  0.12536E-04  0.12536E-04
    4.9700  0.12354E-04  0.12716E-04
    4.9800  0.11755E-04  0.12896E-04
    4.9900  0.10737E-04  0.13076E-04
    5.0000  0.93120E-05  0.13256E-04
    5.0100  0.75355E-05  0.13436E-04
    5.0200  0.55336E-05  0.13616E-04
    5.0300  0.36268E-05  0.13796E-04
    5.0400  0.28129E-05  0.13976E-04
    5.0500  0.40130E-05  0.14156E-04
    5.0600  0.60245E-05  0.14336E-04
    5.0700  0.80563E-05  0.14516E-04
    5.0800  0.98665E-05  0.14696E-04
    5.0900  0.11370E-04  0.14876E-04
    5.1000  0.12549E-04  0.15056E-04
    5.1100  0.13434E-04  0.15236E-04
    5.1200  0.14087E-04  0.15416E-04
    5.1300  0.14588E-04  0.15596E-04
    5.1400  0.15014E-04  0.15776E-04
    5.1500  0.15423E-04  0.15956E-04
    5.1600  0.15837E-04  0.16136E-04
    5.1700  0.16244E-04  0.16316E-04
    5.1800  0.16598E-04  0.16496E-04
    5.1900  0.16829E-04  0.16676E-04
    5.2000  0.16856E-04  0.16856E-04
    5.2100  0.16600E-04  0.16480E-04
    5.2200  0.16007E-04  0.16104E-04
    5.2300  0.15050E-04  0.15729E-04
    5.2400  0.13733E-04  0.15353E-04
